VARIABLES=t/tau,R_numerical, R_exact
	0	1	1
	0.000778749	0.999994	1
	0.00155749	0.999987	0.999999
	0.00233623	0.99998	0.999997
	0.00311496	0.999972	0.999995
	0.0038937	0.999963	0.999992
	0.00467245	0.999954	0.999989
	0.0054512	0.999945	0.999985
	0.00622996	0.999934	0.999981
	0.00700873	0.999923	0.999975
	0.00778751	0.999912	0.99997
	0.00856631	0.9999	0.999963
	0.00934513	0.999887	0.999956
	0.010124	0.999874	0.999949
	0.0109028	0.99986	0.999941
	0.0116817	0.999845	0.999932
	0.0124606	0.99983	0.999922
	0.0132395	0.999815	0.999912
	0.0140185	0.999798	0.999902
	0.0147975	0.999782	0.999891
	0.0155765	0.999764	0.999879
	0.0163555	0.999746	0.999866
	0.0171346	0.999727	0.999853
	0.0179137	0.999708	0.99984
	0.0186928	0.999688	0.999825
	0.0194719	0.999668	0.99981
	0.0202511	0.999647	0.999795
	0.0210303	0.999625	0.999779
	0.0218095	0.999603	0.999762
	0.0225888	0.99958	0.999745
	0.0233681	0.999557	0.999727
	0.0241474	0.999532	0.999708
	0.0249267	0.999508	0.999689
	0.0257061	0.999483	0.99967
	0.0264855	0.999457	0.999649
	0.027265	0.99943	0.999628
	0.0280444	0.999403	0.999607
	0.0288239	0.999376	0.999585
	0.0296035	0.999347	0.999562
	0.030383	0.999319	0.999538
	0.0311626	0.999289	0.999514
	0.0319422	0.999259	0.99949
	0.0327218	0.999228	0.999464
	0.0335015	0.999197	0.999439
	0.0342812	0.999165	0.999412
	0.0350609	0.999133	0.999385
	0.0358406	0.9991	0.999358
	0.0366204	0.999066	0.999329
	0.0374002	0.999032	0.9993
	0.03818	0.998997	0.999271
	0.0389598	0.998962	0.999241
	0.0397397	0.998926	0.99921
	0.0405196	0.998889	0.999179
	0.0412995	0.998852	0.999147
	0.0420794	0.998814	0.999114
	0.0428593	0.998775	0.999081
	0.0436393	0.998736	0.999047
	0.0444192	0.998697	0.999013
	0.0451992	0.998656	0.998978
	0.0459792	0.998616	0.998942
	0.0467592	0.998574	0.998906
	0.0475393	0.998532	0.998869
	0.0483193	0.998489	0.998832
	0.0490994	0.998446	0.998794
	0.0498795	0.998402	0.998755
	0.0506596	0.998358	0.998716
	0.0514397	0.998313	0.998676
	0.0522198	0.998267	0.998636
	0.0529999	0.998221	0.998595
	0.05378	0.998174	0.998553
	0.0545601	0.998126	0.99851
	0.0553403	0.998078	0.998468
	0.0561204	0.99803	0.998424
	0.0569006	0.99798	0.99838
	0.0576807	0.997931	0.998335
	0.0584609	0.99788	0.99829
	0.0592411	0.997829	0.998244
	0.0600212	0.997777	0.998197
	0.0608014	0.997725	0.99815
	0.0615816	0.997672	0.998102
	0.0623617	0.997619	0.998054
	0.0631419	0.997565	0.998005
	0.063922	0.99751	0.997955
	0.0647022	0.997455	0.997905
	0.0654823	0.997399	0.997854
	0.0662625	0.997342	0.997802
	0.0670426	0.997285	0.99775
	0.0678228	0.997227	0.997697
	0.0686029	0.997169	0.997644
	0.069383	0.99711	0.99759
	0.0701631	0.997051	0.997536
	0.0709432	0.99699	0.99748
	0.0717233	0.99693	0.997425
	0.0725034	0.996868	0.997368
	0.0732834	0.996806	0.997311
	0.0740635	0.996744	0.997254
	0.0748435	0.996681	0.997195
	0.0756235	0.996617	0.997136
	0.0764035	0.996553	0.997077
	0.0771835	0.996488	0.997017
	0.0779634	0.996422	0.996956
	0.0787434	0.996356	0.996895
	0.0795233	0.996289	0.996833
	0.0803032	0.996222	0.99677
	0.0810831	0.996154	0.996707
	0.0818629	0.996085	0.996644
	0.0826427	0.996016	0.996579
	0.0834225	0.995946	0.996514
	0.0842023	0.995876	0.996449
	0.084982	0.995805	0.996382
	0.0857618	0.995733	0.996316
	0.0865414	0.995661	0.996248
	0.0873211	0.995589	0.99618
	0.0881007	0.995515	0.996112
	0.0888803	0.995441	0.996042
	0.0896599	0.995367	0.995972
	0.0904394	0.995291	0.995902
	0.0912189	0.995216	0.995831
	0.0919984	0.995139	0.995759
	0.0927778	0.995062	0.995687
	0.0935572	0.994985	0.995614
	0.0943365	0.994906	0.99554
	0.0951158	0.994828	0.995466
	0.0958951	0.994748	0.995391
	0.0966743	0.994668	0.995316
	0.0974535	0.994588	0.99524
	0.0982326	0.994506	0.995163
	0.0990117	0.994425	0.995086
	0.0997907	0.994342	0.995008
	0.10057	0.994259	0.99493
	0.101349	0.994175	0.994851
	0.102128	0.994091	0.994771
	0.102906	0.994006	0.994691
	0.103685	0.993921	0.99461
	0.104464	0.993835	0.994529
	0.105243	0.993748	0.994447
	0.106021	0.993661	0.994364
	0.1068	0.993573	0.994281
	0.107578	0.993485	0.994197
	0.108357	0.993396	0.994112
	0.109135	0.993306	0.994027
	0.109914	0.993216	0.993941
	0.110692	0.993125	0.993855
	0.11147	0.993034	0.993768
	0.112249	0.992942	0.99368
	0.113027	0.992849	0.993592
	0.113805	0.992756	0.993503
	0.114583	0.992662	0.993414
	0.115361	0.992568	0.993324
	0.116139	0.992472	0.993233
	0.116916	0.992377	0.993142
	0.117694	0.992281	0.99305
	0.118472	0.992184	0.992957
	0.119249	0.992086	0.992864
	0.120027	0.991988	0.992771
	0.120804	0.99189	0.992676
	0.121582	0.99179	0.992581
	0.122359	0.991691	0.992486
	0.123136	0.99159	0.99239
	0.123914	0.991489	0.992293
	0.124691	0.991387	0.992196
	0.125468	0.991285	0.992098
	0.126245	0.991182	0.991999
	0.127021	0.991079	0.9919
	0.127798	0.990975	0.9918
	0.128575	0.99087	0.9917
	0.129352	0.990765	0.991599
	0.130128	0.990659	0.991497
	0.130905	0.990553	0.991395
	0.131681	0.990446	0.991292
	0.132457	0.990338	0.991189
	0.133233	0.99023	0.991085
	0.13401	0.990121	0.99098
	0.134786	0.990012	0.990875
	0.135562	0.989902	0.990769
	0.136337	0.989791	0.990662
	0.137113	0.98968	0.990555
	0.137889	0.989568	0.990448
	0.138664	0.989456	0.990339
	0.13944	0.989343	0.990231
	0.140215	0.989229	0.990121
	0.140991	0.989115	0.990011
	0.141766	0.989	0.9899
	0.142541	0.988885	0.989789
	0.143316	0.988769	0.989677
	0.144091	0.988652	0.989564
	0.144866	0.988535	0.989451
	0.14564	0.988417	0.989338
	0.146415	0.988299	0.989223
	0.147189	0.98818	0.989108
	0.147964	0.988061	0.988993
	0.148738	0.98794	0.988877
	0.149512	0.98782	0.98876
	0.150286	0.987698	0.988642
	0.15106	0.987576	0.988525
	0.151834	0.987454	0.988406
	0.152608	0.987331	0.988287
	0.153382	0.987207	0.988167
	0.154155	0.987083	0.988047
	0.154929	0.986958	0.987926
	0.155702	0.986832	0.987804
	0.156475	0.986706	0.987682
	0.157248	0.98658	0.987559
	0.158021	0.986452	0.987436
	0.158794	0.986325	0.987312
	0.159567	0.986196	0.987187
	0.160339	0.986067	0.987062
	0.161112	0.985937	0.986936
	0.161884	0.985807	0.98681
	0.162657	0.985676	0.986683
	0.163429	0.985545	0.986555
	0.164201	0.985413	0.986427
	0.164973	0.98528	0.986298
	0.165744	0.985147	0.986169
	0.166516	0.985014	0.986039
	0.167288	0.984879	0.985908
	0.168059	0.984744	0.985777
	0.16883	0.984609	0.985645
	0.169601	0.984473	0.985513
	0.170372	0.984336	0.98538
	0.171143	0.984199	0.985246
	0.171914	0.984061	0.985112
	0.172685	0.983922	0.984977
	0.173455	0.983783	0.984842
	0.174225	0.983643	0.984706
	0.174996	0.983503	0.984569
	0.175766	0.983362	0.984432
	0.176536	0.983221	0.984294
	0.177305	0.983079	0.984156
	0.178075	0.982936	0.984017
	0.178844	0.982793	0.983877
	0.179614	0.982649	0.983737
	0.180383	0.982505	0.983596
	0.181152	0.98236	0.983455
	0.181921	0.982215	0.983313
	0.18269	0.982069	0.983171
	0.183458	0.981922	0.983027
	0.184227	0.981775	0.982884
	0.184995	0.981627	0.982739
	0.185764	0.981478	0.982594
	0.186532	0.981329	0.982449
	0.187299	0.98118	0.982303
	0.188067	0.981029	0.982156
	0.188835	0.980879	0.982009
	0.189602	0.980727	0.981861
	0.19037	0.980575	0.981712
	0.191137	0.980423	0.981563
	0.191904	0.98027	0.981414
	0.192671	0.980116	0.981264
	0.193437	0.979962	0.981113
	0.194204	0.979807	0.980961
	0.19497	0.979651	0.980809
	0.195736	0.979495	0.980657
	0.196502	0.979339	0.980503
	0.197268	0.979181	0.98035
	0.198034	0.979024	0.980195
	0.198799	0.978865	0.98004
	0.199565	0.978706	0.979885
	0.20033	0.978547	0.979728
	0.201095	0.978387	0.979572
	0.20186	0.978226	0.979414
	0.202625	0.978065	0.979256
	0.203389	0.977903	0.979098
	0.204153	0.977741	0.978939
	0.204918	0.977578	0.978779
	0.205682	0.977414	0.978619
	0.206446	0.97725	0.978458
	0.207209	0.977085	0.978297
	0.207973	0.97692	0.978135
	0.208736	0.976754	0.977972
	0.209499	0.976588	0.977809
	0.210262	0.976421	0.977645
	0.211025	0.976253	0.977481
	0.211788	0.976085	0.977316
	0.21255	0.975916	0.97715
	0.213312	0.975747	0.976984
	0.214074	0.975577	0.976817
	0.214836	0.975406	0.97665
	0.215598	0.975235	0.976482
	0.21636	0.975064	0.976314
	0.217121	0.974892	0.976145
	0.217882	0.974719	0.975975
	0.218643	0.974545	0.975805
	0.219404	0.974372	0.975634
	0.220164	0.974197	0.975463
	0.220925	0.974022	0.975291
	0.221685	0.973846	0.975118
	0.222445	0.97367	0.974945
	0.223205	0.973493	0.974772
	0.223964	0.973316	0.974597
	0.224724	0.973138	0.974422
	0.225483	0.97296	0.974247
	0.226242	0.972781	0.974071
	0.227001	0.972601	0.973895
	0.22776	0.972421	0.973717
	0.228518	0.97224	0.97354
	0.229276	0.972059	0.973361
	0.230035	0.971877	0.973182
	0.230792	0.971695	0.973003
	0.23155	0.971512	0.972823
	0.232308	0.971328	0.972642
	0.233065	0.971144	0.972461
	0.233822	0.970959	0.972279
	0.234579	0.970774	0.972097
	0.235335	0.970588	0.971914
	0.236092	0.970402	0.971731
	0.236848	0.970215	0.971547
	0.237604	0.970027	0.971362
	0.23836	0.969839	0.971177
	0.239115	0.96965	0.970991
	0.239871	0.969461	0.970805
	0.240626	0.969271	0.970618
	0.241381	0.969081	0.97043
	0.242136	0.96889	0.970242
	0.24289	0.968699	0.970054
	0.243645	0.968506	0.969865
	0.244399	0.968314	0.969675
	0.245153	0.968121	0.969484
	0.245906	0.967927	0.969294
	0.24666	0.967733	0.969102
	0.247413	0.967538	0.96891
	0.248166	0.967342	0.968718
	0.248919	0.967147	0.968524
	0.249671	0.96695	0.968331
	0.250424	0.966753	0.968136
	0.251176	0.966555	0.967941
	0.251928	0.966357	0.967746
	0.252679	0.966158	0.96755
	0.253431	0.965959	0.967353
	0.254182	0.965759	0.967156
	0.254933	0.965559	0.966959
	0.255684	0.965358	0.96676
	0.256434	0.965156	0.966562
	0.257185	0.964954	0.966362
	0.257935	0.964752	0.966162
	0.258685	0.964548	0.965962
	0.259434	0.964345	0.965761
	0.260184	0.96414	0.965559
	0.260933	0.963936	0.965357
	0.261682	0.96373	0.965154
	0.26243	0.963524	0.964951
	0.263179	0.963318	0.964747
	0.263927	0.963111	0.964543
	0.264675	0.962903	0.964338
	0.265423	0.962695	0.964132
	0.26617	0.962486	0.963926
	0.266918	0.962277	0.963719
	0.267665	0.962067	0.963512
	0.268411	0.961857	0.963304
	0.269158	0.961646	0.963096
	0.269904	0.961435	0.962887
	0.27065	0.961223	0.962678
	0.271396	0.96101	0.962468
	0.272141	0.960797	0.962257
	0.272887	0.960583	0.962046
	0.273632	0.960369	0.961835
	0.274377	0.960154	0.961622
	0.275121	0.959939	0.96141
	0.275865	0.959723	0.961196
	0.276609	0.959507	0.960982
	0.277353	0.95929	0.960768
	0.278097	0.959073	0.960553
	0.27884	0.958855	0.960338
	0.279583	0.958636	0.960122
	0.280326	0.958417	0.959905
	0.281068	0.958198	0.959688
	0.281811	0.957977	0.95947
	0.282553	0.957757	0.959252
	0.283294	0.957536	0.959033
	0.284036	0.957314	0.958814
	0.284777	0.957092	0.958594
	0.285518	0.956869	0.958373
	0.286259	0.956645	0.958152
	0.286999	0.956421	0.957931
	0.287739	0.956197	0.957709
	0.288479	0.955972	0.957486
	0.289219	0.955746	0.957263
	0.289958	0.95552	0.957039
	0.290697	0.955294	0.956815
	0.291436	0.955067	0.95659
	0.292175	0.954839	0.956365
	0.292913	0.954611	0.956139
	0.293651	0.954382	0.955913
	0.294389	0.954153	0.955686
	0.295127	0.953923	0.955458
	0.295864	0.953693	0.95523
	0.296601	0.953462	0.955002
	0.297337	0.95323	0.954772
	0.298074	0.952999	0.954543
	0.29881	0.952766	0.954313
	0.299546	0.952533	0.954082
	0.300281	0.9523	0.953851
	0.301017	0.952066	0.953619
	0.301752	0.951831	0.953387
	0.302487	0.951596	0.953154
	0.303221	0.95136	0.95292
	0.303955	0.951124	0.952686
	0.304689	0.950887	0.952452
	0.305423	0.95065	0.952217
	0.306156	0.950412	0.951981
	0.306889	0.950174	0.951745
	0.307622	0.949935	0.951509
	0.308355	0.949696	0.951272
	0.309087	0.949456	0.951034
	0.309819	0.949216	0.950796
	0.31055	0.948975	0.950557
	0.311282	0.948734	0.950318
	0.312013	0.948492	0.950078
	0.312744	0.948249	0.949838
	0.313474	0.948006	0.949597
	0.314204	0.947763	0.949355
	0.314934	0.947519	0.949114
	0.315664	0.947274	0.948871
	0.316393	0.947029	0.948628
	0.317122	0.946784	0.948385
	0.317851	0.946538	0.948141
	0.318579	0.946291	0.947896
	0.319307	0.946044	0.947651
	0.320035	0.945796	0.947406
	0.320763	0.945548	0.94716
	0.32149	0.9453	0.946913
	0.322217	0.94505	0.946666
	0.322944	0.944801	0.946418
	0.32367	0.944551	0.94617
	0.324396	0.9443	0.945921
	0.325122	0.944049	0.945672
	0.325847	0.943797	0.945422
	0.326573	0.943545	0.945172
	0.327297	0.943292	0.944921
	0.328022	0.943039	0.94467
	0.328746	0.942785	0.944418
	0.32947	0.94253	0.944166
	0.330194	0.942276	0.943913
	0.330917	0.94202	0.94366
	0.33164	0.941764	0.943406
	0.332363	0.941508	0.943152
	0.333085	0.941251	0.942897
	0.333807	0.940994	0.942641
	0.334529	0.940736	0.942385
	0.335251	0.940478	0.942129
	0.335972	0.940219	0.941872
	0.336693	0.939959	0.941615
	0.337413	0.9397	0.941357
	0.338133	0.939439	0.941098
	0.338853	0.939178	0.940839
	0.339573	0.938917	0.94058
	0.340292	0.938655	0.94032
	0.341011	0.938393	0.940059
	0.34173	0.93813	0.939798
	0.342448	0.937866	0.939537
	0.343166	0.937602	0.939275
	0.343884	0.937338	0.939012
	0.344601	0.937073	0.938749
	0.345318	0.936808	0.938486
	0.346035	0.936542	0.938222
	0.346751	0.936276	0.937957
	0.347467	0.936009	0.937692
	0.348183	0.935741	0.937427
	0.348899	0.935473	0.93716
	0.349614	0.935205	0.936894
	0.350329	0.934936	0.936627
	0.351043	0.934667	0.936359
	0.351757	0.934397	0.936091
	0.352471	0.934126	0.935823
	0.353184	0.933856	0.935554
	0.353898	0.933584	0.935284
	0.35461	0.933312	0.935014
	0.355323	0.93304	0.934744
	0.356035	0.932767	0.934473
	0.356747	0.932494	0.934201
	0.357458	0.93222	0.933929
	0.358169	0.931946	0.933657
	0.35888	0.931671	0.933384
	0.359591	0.931396	0.93311
	0.360301	0.93112	0.932836
	0.361011	0.930844	0.932562
	0.36172	0.930567	0.932287
	0.362429	0.93029	0.932011
	0.363138	0.930012	0.931735
	0.363847	0.929734	0.931459
	0.364555	0.929455	0.931182
	0.365263	0.929176	0.930904
	0.36597	0.928897	0.930627
	0.366677	0.928616	0.930348
	0.367384	0.928336	0.930069
	0.36809	0.928055	0.92979
	0.368797	0.927773	0.92951
	0.369502	0.927491	0.92923
	0.370208	0.927209	0.928949
	0.370913	0.926926	0.928668
	0.371618	0.926642	0.928386
	0.372322	0.926358	0.928104
	0.373026	0.926074	0.927821
	0.37373	0.925789	0.927538
	0.374433	0.925503	0.927254
	0.375136	0.925217	0.92697
	0.375839	0.924931	0.926685
	0.376541	0.924644	0.9264
	0.377243	0.924357	0.926114
	0.377944	0.924069	0.925828
	0.378646	0.923781	0.925542
	0.379347	0.923492	0.925255
	0.380047	0.923203	0.924967
	0.380747	0.922913	0.924679
	0.381447	0.922623	0.924391
	0.382147	0.922332	0.924102
	0.382846	0.922041	0.923812
	0.383545	0.92175	0.923522
	0.384243	0.921458	0.923232
	0.384941	0.921165	0.922941
	0.385639	0.920872	0.92265
	0.386336	0.920579	0.922358
	0.387033	0.920285	0.922066
	0.38773	0.919991	0.921773
	0.388426	0.919696	0.92148
	0.389122	0.919401	0.921186
	0.389817	0.919105	0.920892
	0.390513	0.918809	0.920598
	0.391207	0.918512	0.920303
	0.391902	0.918215	0.920007
	0.392596	0.917917	0.919711
	0.39329	0.917619	0.919415
	0.393983	0.91732	0.919118
	0.394676	0.917021	0.91882
	0.395369	0.916722	0.918522
	0.396061	0.916422	0.918224
	0.396753	0.916122	0.917925
	0.397445	0.915821	0.917626
	0.398136	0.915519	0.917327
	0.398827	0.915218	0.917026
	0.399517	0.914915	0.916726
	0.400207	0.914613	0.916425
	0.400897	0.91431	0.916123
	0.401586	0.914006	0.915821
	0.402275	0.913702	0.915519
	0.402964	0.913398	0.915216
	0.403652	0.913093	0.914913
	0.40434	0.912787	0.914609
	0.405027	0.912481	0.914305
	0.405714	0.912175	0.914
	0.406401	0.911868	0.913695
	0.407087	0.911561	0.913389
	0.407773	0.911253	0.913083
	0.408459	0.910945	0.912777
	0.409144	0.910637	0.91247
	0.409829	0.910328	0.912162
	0.410513	0.910018	0.911855
	0.411198	0.909708	0.911546
	0.411881	0.909398	0.911238
	0.412565	0.909087	0.910928
	0.413248	0.908776	0.910619
	0.41393	0.908464	0.910309
	0.414612	0.908152	0.909998
	0.415294	0.90784	0.909687
	0.415976	0.907527	0.909376
	0.416657	0.907213	0.909064
	0.417337	0.906899	0.908752
	0.418018	0.906585	0.908439
	0.418697	0.90627	0.908126
	0.419377	0.905955	0.907812
	0.420056	0.905639	0.907498
	0.420735	0.905323	0.907184
	0.421413	0.905007	0.906869
	0.422091	0.90469	0.906553
	0.422769	0.904372	0.906238
	0.423446	0.904054	0.905921
	0.424123	0.903736	0.905605
	0.424799	0.903417	0.905288
	0.425475	0.903098	0.90497
	0.426151	0.902778	0.904652
	0.426826	0.902458	0.904334
	0.427501	0.902138	0.904015
	0.428175	0.901817	0.903696
	0.428849	0.901496	0.903376
	0.429523	0.901174	0.903056
	0.430196	0.900852	0.902735
	0.430869	0.900529	0.902414
	0.431542	0.900206	0.902093
	0.432214	0.899883	0.901771
	0.432886	0.899559	0.901449
	0.433557	0.899234	0.901126
	0.434228	0.89891	0.900803
	0.434898	0.898585	0.90048
	0.435569	0.898259	0.900156
	0.436238	0.897933	0.899831
	0.436908	0.897606	0.899506
	0.437577	0.89728	0.899181
	0.438245	0.896952	0.898856
	0.438913	0.896625	0.898529
	0.439581	0.896296	0.898203
	0.440248	0.895968	0.897876
	0.440915	0.895639	0.897549
	0.441582	0.895309	0.897221
	0.442248	0.89498	0.896893
	0.442914	0.894649	0.896564
	0.443579	0.894319	0.896235
	0.444244	0.893988	0.895906
	0.444908	0.893656	0.895576
	0.445572	0.893324	0.895246
	0.446236	0.892992	0.894915
	0.446899	0.892659	0.894584
	0.447562	0.892326	0.894253
	0.448225	0.891992	0.893921
	0.448887	0.891658	0.893589
	0.449549	0.891324	0.893256
	0.45021	0.890989	0.892923
	0.450871	0.890654	0.892589
	0.451531	0.890318	0.892255
	0.452191	0.889982	0.891921
	0.452851	0.889646	0.891586
	0.45351	0.889309	0.891251
	0.454169	0.888972	0.890916
	0.454827	0.888634	0.89058
	0.455485	0.888296	0.890243
	0.456143	0.887958	0.889907
	0.4568	0.887619	0.88957
	0.457457	0.887279	0.889232
	0.458113	0.88694	0.888894
	0.458769	0.8866	0.888556
	0.459424	0.886259	0.888217
	0.460079	0.885918	0.887878
	0.460734	0.885577	0.887538
	0.461388	0.885235	0.887198
	0.462042	0.884893	0.886858
	0.462696	0.884551	0.886517
	0.463349	0.884208	0.886176
	0.464001	0.883864	0.885835
	0.464653	0.883521	0.885493
	0.465305	0.883177	0.88515
	0.465956	0.882832	0.884808
	0.466607	0.882487	0.884465
	0.467258	0.882142	0.884121
	0.467908	0.881796	0.883777
	0.468558	0.88145	0.883433
	0.469207	0.881104	0.883088
	0.469856	0.880757	0.882743
	0.470504	0.88041	0.882398
	0.471152	0.880062	0.882052
	0.4718	0.879714	0.881706
	0.472447	0.879366	0.881359
	0.473093	0.879017	0.881012
	0.47374	0.878668	0.880665
	0.474385	0.878318	0.880317
	0.475031	0.877968	0.879969
	0.475676	0.877618	0.879621
	0.47632	0.877267	0.879272
	0.476965	0.876916	0.878923
	0.477608	0.876564	0.878573
	0.478252	0.876213	0.878223
	0.478894	0.87586	0.877873
	0.479537	0.875508	0.877522
	0.480179	0.875155	0.877171
	0.48082	0.874801	0.876819
	0.481462	0.874447	0.876467
	0.482102	0.874093	0.876115
	0.482743	0.873739	0.875762
	0.483382	0.873384	0.875409
	0.484022	0.873028	0.875056
	0.484661	0.872673	0.874702
	0.485299	0.872317	0.874348
	0.485938	0.87196	0.873994
	0.486575	0.871604	0.873639
	0.487212	0.871246	0.873283
	0.487849	0.870889	0.872928
	0.488486	0.870531	0.872572
	0.489122	0.870173	0.872216
	0.489757	0.869814	0.871859
	0.490392	0.869455	0.871502
	0.491027	0.869096	0.871144
	0.491661	0.868736	0.870787
	0.492295	0.868376	0.870428
	0.492928	0.868015	0.87007
	0.493561	0.867654	0.869711
	0.494194	0.867293	0.869352
	0.494826	0.866932	0.868992
	0.495457	0.86657	0.868632
	0.496088	0.866207	0.868272
	0.496719	0.865845	0.867911
	0.497349	0.865482	0.86755
	0.497979	0.865118	0.867189
	0.498609	0.864754	0.866827
	0.499238	0.86439	0.866465
	0.499866	0.864026	0.866103
	0.500494	0.863661	0.86574
	0.501122	0.863296	0.865377
	0.501749	0.86293	0.865013
	0.502376	0.862564	0.864649
	0.503002	0.862198	0.864285
	0.503628	0.861831	0.863921
	0.504253	0.861464	0.863556
	0.504878	0.861097	0.86319
	0.505503	0.860729	0.862825
	0.506127	0.860361	0.862459
	0.506751	0.859993	0.862093
	0.507374	0.859624	0.861726
	0.507997	0.859255	0.861359
	0.508619	0.858886	0.860992
	0.509241	0.858516	0.860624
	0.509862	0.858146	0.860256
	0.510483	0.857775	0.859888
	0.511104	0.857405	0.859519
	0.511724	0.857033	0.85915
	0.512343	0.856662	0.858781
	0.512963	0.85629	0.858411
	0.513581	0.855918	0.858041
	0.5142	0.855545	0.857671
	0.514817	0.855172	0.8573
	0.515435	0.854799	0.856929
	0.516052	0.854426	0.856557
	0.516668	0.854052	0.856186
	0.517284	0.853678	0.855814
	0.5179	0.853303	0.855441
	0.518515	0.852928	0.855069
	0.51913	0.852553	0.854695
	0.519744	0.852177	0.854322
	0.520358	0.851801	0.853948
	0.520971	0.851425	0.853574
